# PDE of SiPM sensors to be used on SC-MST,
# averaged over angles of incidence by Olivier Hervet, 2020-02-27.
# For angle dependence see Redmine issue 37521.
# Scaled from percentage to absolute values (KB).
#
# Col. 1: Wavelength [nm]
# Col. 2: Photon detection efficiency
#
 200.000  0.048772
 201.995  0.041157
 203.990  0.048757
 205.985  0.069611
 207.980  0.054876
 209.975  0.050362
 211.970  0.077388
 213.965  0.084927
 215.960  0.064981
 217.955  0.067184
 219.950  0.094255
 221.945  0.099391
 223.940  0.082546
 225.935  0.081333
 227.930  0.111320
 229.925  0.124702
 231.920  0.112612
 233.915  0.100324
 235.910  0.119635
 237.905  0.150135
 239.900  0.150060
 241.895  0.134097
 243.890  0.121835
 245.885  0.143257
 247.880  0.167405
 249.875  0.160208
 251.870  0.153218
 253.865  0.137766
 255.860  0.144656
 257.855  0.169029
 259.850  0.169281
 261.845  0.162155
 263.840  0.164814
 265.835  0.159160
 267.830  0.161827
 269.825  0.184492
 271.820  0.188842
 273.815  0.176623
 275.810  0.181326
 277.805  0.195153
 279.800  0.199473
 281.796  0.221514
 283.791  0.249514
 285.786  0.240421
 287.781  0.224612
 289.776  0.229874
 291.771  0.254152
 293.766  0.276086
 295.761  0.301823
 297.756  0.331432
 299.751  0.339287
 301.746  0.313949
 303.741  0.298164
 305.736  0.305313
 307.731  0.329192
 309.726  0.357857
 311.721  0.379959
 313.716  0.398473
 315.711  0.400187
 317.706  0.380227
 319.701  0.357246
 321.696  0.341626
 323.691  0.342038
 325.686  0.358453
 327.681  0.386599
 329.676  0.416797
 331.671  0.439230
 333.666  0.447884
 335.661  0.432645
 337.656  0.403148
 339.651  0.372734
 341.646  0.352616
 343.641  0.345044
 345.636  0.354728
 347.631  0.378046
 349.626  0.409821
 351.621  0.443276
 353.616  0.465604
 355.611  0.465466
 357.606  0.442786
 359.601  0.406377
 361.596  0.370212
 363.591  0.345290
 365.586  0.332330
 367.581  0.333227
 369.576  0.347801
 371.571  0.376743
 373.566  0.415489
 375.561  0.451490
 377.556  0.478575
 379.551  0.488082
 381.546  0.480471
 383.541  0.456940
 385.536  0.429272
 387.531  0.402486
 389.526  0.383170
 391.521  0.372018
 393.516  0.366825
 395.511  0.373055
 397.506  0.386484
 399.501  0.407342
 401.496  0.433599
 403.491  0.461159
 405.486  0.483927
 407.481  0.496671
 409.476  0.494295
 411.471  0.480072
 413.466  0.456481
 415.461  0.430765
 417.456  0.406160
 419.451  0.385881
 421.446  0.370343
 423.441  0.361694
 425.436  0.359259
 427.431  0.361424
 429.426  0.366840
 431.421  0.376138
 433.416  0.390392
 435.411  0.406685
 437.406  0.423213
 439.401  0.434943
 441.397  0.442553
 443.392  0.442866
 445.387  0.435590
 447.382  0.420654
 449.377  0.402523
 451.372  0.383416
 453.367  0.363776
 455.362  0.346418
 457.357  0.332699
 459.352  0.320696
 461.347  0.312885
 463.342  0.309230
 465.337  0.307485
 467.332  0.312149
 469.327  0.315155
 471.322  0.321932
 473.317  0.330429
 475.312  0.341396
 477.307  0.351807
 479.302  0.360920
 481.297  0.366867
 483.292  0.368572
 485.287  0.367401
 487.282  0.362502
 489.277  0.355801
 491.272  0.346218
 493.267  0.334063
 495.262  0.322185
 497.257  0.310226
 499.252  0.299538
 501.247  0.288813
 503.242  0.279192
 505.237  0.272450
 507.232  0.267379
 509.227  0.263990
 511.222  0.262281
 513.217  0.262821
 515.212  0.264602
 517.207  0.267272
 519.202  0.271907
 521.197  0.277469
 523.192  0.283933
 525.187  0.290051
 527.182  0.296276
 529.177  0.300797
 531.172  0.304623
 533.167  0.306649
 535.162  0.306647
 537.157  0.305274
 539.152  0.301978
 541.147  0.297234
 543.142  0.292381
 545.137  0.286994
 547.132  0.279186
 549.127  0.271770
 551.122  0.264961
 553.117  0.258381
 555.112  0.252586
 557.107  0.246764
 559.102  0.241359
 561.097  0.236652
 563.092  0.232847
 565.087  0.230319
 567.082  0.228818
 569.077  0.227761
 571.072  0.227247
 573.067  0.227730
 575.062  0.229572
 577.057  0.231672
 579.052  0.233721
 581.047  0.236222
 583.042  0.238676
 585.037  0.241241
 587.032  0.244138
 589.027  0.246626
 591.022  0.247831
 593.017  0.247930
 595.012  0.247447
 597.007  0.246607
 599.002  0.245431
 600.998  0.243681
 602.993  0.241110
 604.988  0.238128
 606.983  0.235154
 608.978  0.231724
 610.973  0.227660
 612.968  0.223504
 614.963  0.219695
 616.958  0.215178
 618.953  0.210952
 620.948  0.207242
 622.943  0.202992
 624.938  0.199245
 626.933  0.195384
 628.928  0.191799
 630.923  0.188624
 632.918  0.185625
 634.913  0.183150
 636.908  0.180933
 638.903  0.179337
 640.898  0.177971
 642.893  0.176880
 644.888  0.176789
 646.883  0.176876
 648.878  0.177136
 650.873  0.176972
 652.868  0.176938
 654.863  0.177238
 656.858  0.178105
 658.853  0.179017
 660.848  0.179135
 662.843  0.179217
 664.838  0.179375
 666.833  0.179305
 668.828  0.178752
 670.823  0.178112
 672.818  0.177206
 674.813  0.176075
 676.808  0.174498
 678.803  0.172255
 680.798  0.170235
 682.793  0.168223
 684.788  0.165994
 686.783  0.163410
 688.778  0.161346
 690.773  0.158889
 692.768  0.155800
 694.763  0.152966
 696.758  0.150550
 698.753  0.148478
 700.748  0.146150
 702.743  0.143908
 704.738  0.141900
 706.733  0.139500
 708.728  0.137528
 710.723  0.136074
 712.718  0.134291
 714.713  0.132338
 716.708  0.130114
 718.703  0.127900
 720.698  0.126008
 722.693  0.124475
 724.688  0.123076
 726.683  0.122029
 728.678  0.120864
 730.673  0.119668
 732.668  0.118768
 734.663  0.117678
 736.658  0.116145
 738.653  0.115448
 740.648  0.115098
 742.643  0.114488
 744.638  0.113637
 746.633  0.112884
 748.628  0.112357
 750.623  0.112309
 752.618  0.111779
 754.613  0.111512
 756.608  0.111199
 758.603  0.110588
 760.599  0.110048
 762.594  0.109225
 764.589  0.108148
 766.584  0.106934
 768.579  0.105666
 770.574  0.103896
 772.569  0.103000
 774.564  0.101646
 776.559  0.100321
 778.554  0.099036
 780.549  0.097568
 782.544  0.096183
 784.539  0.094538
 786.534  0.093111
 788.529  0.091814
 790.524  0.090590
 792.519  0.088185
 794.514  0.086366
 796.509  0.085248
 798.504  0.084019
 800.499  0.082088
 802.494  0.080307
 804.489  0.078763
 806.484  0.077671
 808.479  0.076489
 810.474  0.075236
 812.469  0.073640
 814.464  0.072080
 816.459  0.070727
 818.454  0.069479
 820.449  0.067979
 822.444  0.066395
 824.439  0.065398
 826.434  0.064066
 828.429  0.063233
 830.424  0.061978
 832.419  0.061092
 834.414  0.060032
 836.409  0.059263
 838.404  0.058290
 840.399  0.057328
 842.394  0.056567
 844.389  0.055839
 846.384  0.055128
 848.379  0.054394
 850.374  0.053734
 852.369  0.052724
 854.364  0.051985
 856.359  0.051287
 858.354  0.050562
 860.349  0.049752
 862.344  0.049065
 864.339  0.048241
 866.334  0.047507
 868.329  0.046819
 870.324  0.046134
 872.319  0.045106
 874.314  0.044141
 876.309  0.043445
 878.304  0.042461
 880.299  0.041332
 882.294  0.041178
 884.289  0.040594
 886.284  0.039872
 888.279  0.039470
 890.274  0.038864
 892.269  0.038342
 894.264  0.037823
 896.259  0.037183
 898.254  0.036445
 900.249  0.035961
 902.244  0.035170
 904.239  0.034376
 906.234  0.033816
 908.229  0.033118
 910.224  0.032488
 912.219  0.031853
 914.214  0.031008
 916.209  0.030050
 918.204  0.029359
 920.200  0.028564
 922.195  0.028117
 924.190  0.027411
 926.185  0.026664
 928.180  0.025940
 930.175  0.025300
 932.170  0.024611
 934.165  0.023848
 936.160  0.023105
 938.155  0.022412
 940.150  0.021682
 942.145  0.020966
 944.140  0.020301
 946.135  0.019683
 948.130  0.019099
 950.125  0.018556
 952.120  0.018046
 954.115  0.017547
 956.110  0.017038
 958.105  0.016454
 960.100  0.016005
 962.095  0.015542
 964.090  0.015077
 966.085  0.014567
 968.080  0.014111
 970.075  0.013643
 972.070  0.013172
 974.065  0.012735
 976.060  0.012336
 978.055  0.011788
 980.050  0.011275
 982.045  0.010979
 984.040  0.010812
 986.035  0.010336
 988.030  0.009903
 990.025  0.009518
 992.020  0.009065
 994.015  0.008827
 996.010  0.008686
 998.005  0.008475
1000.000  0.008184
